Desired Frequency (GHz),Measured Frequency (GHz),Vlockin (microvolts)
70,70.065618216031,9.05996
71,70.9052568145562,12.8747
72,71.90363373924629,13.709100000000001
73,72.90126649066224,13.470699999999999
74,73.90227378779673,6.31812
75,74.90153444491443,14.782
76,75.90006599423941,9.29838
77,76.90190756044467,5.96049
78,77.90258763622842,4.7684
79,78.90176141253323,12.517000000000001
80,79.90236249091686,1.1921
81,80.90338832506677,3.09946
82,81.90102474001469,5.12603
83,82.90088267574902,8.46392
84,83.90008706558729,4.64919
85,84.90619114710717,4.8876100000000005
86,85.9023810030485,7.033379999999999
87,86.9063193963375,5.48366
88,87.90445626937435,2.98025
89,88.90035056479974,2.62262
90,89.9032429161307,1.43052
91,90.90300519467564,3.4570800000000004
92,91.90367287170375,4.2915600000000005
93,92.90092097205343,2.5034099999999997
94,93.90001849381952,2.02657
95,94.90038795035798,3.09946
96,95.90456256299512,2.98025
97,96.90281371309538,2.74183
98,97.90877631565672,2.02657
99,98.90232756728074,1.78815
100,99.90000043899636,1.1921
101,100.90321139275329,1.31131
102,101.90083543246146,0.59605
103,102.90433185591246,1.31131
104,103.90085000326508,2.3842
105,104.90292974270415,0.953682
106,105.9046312829887,1.54973
107,106.90353350411169,0.59605
108,107.90075191407232,0.0
109,108.90026649984065,0.953682
110,109.9032114763686,0.715259
111,110.90402096684556,1.54973
112,111.9023102587089,0.953682
113,112.90036910373601,0.715259
114,113.90555474261055,0.59605
115,114.90199510843377,0.35763
116,115.90256746276282,0.59605
117,116.90332711784868,0.834469
118,117.90584572774242,0.23842
119,118.90350956885959,0.35763
120,119.90118177162367,0.715259
121,120.90250734257279,74.7447
122,121.90628956363071,206.233
123,122.90439088581479,99.3018
124,123.90103502132115,292.422
125,124.90698337374488,643.972
126,125.90601645596325,261.785
127,126.9049360648205,2054.71
128,127.90100818395149,1672.04
129,128.9022257225297,2184.29
130,129.90225155997905,379.56399999999996
131,130.90122249283013,1500.3799999999999
132,131.90061117324512,351.073
133,132.9012320250913,1010.31
134,133.90058659002534,775.937
135,134.9021563208953,191.689
136,135.9022587510117,952.9630000000001
137,136.90501583486912,255.825
138,137.9017488581012,164.27100000000002
139,138.90074801890296,263.097
140,139.90083219922963,1233.6999999999998
141,140.90544670293457,762.586
142,141.901096315647,895.265
143,142.9057394512638,853.0649999999999
144,143.90668607264524,790.481
145,144.90548074210528,965.957
146,145.90203415730502,388.267
147,146.90296539329574,306.48900000000003
148,147.90176976221846,816.587
149,148.90213909590966,738.148
150,149.90158420964144,784.2819999999999
151,150.90345366788097,424.864
152,151.9021640367573,135.423
153,152.9058859651559,541.929
154,153.90692170371767,492.338
155,154.9006338333129,235.08200000000002
156,155.90155737652094,170.94699999999997
157,156.90104606220848,531.3199999999999
158,157.90233158206684,249.98400000000004
159,158.90009019849822,131.727
160,159.90457918433822,244.619
161,160.90228695783298,233.77
162,161.90079496213002,333.549
163,162.90156716672936,511.41200000000003
164,163.90409997774987,285.15000000000003
165,164.9048144519329,556.9499999999999
166,165.9062046103354,806.931
167,166.90183550823713,302.91299999999995
168,167.9028852051415,393.86899999999997
169,168.9014541102806,613.932
170,169.90297066111816,188.113
171,170.90410494597745,586.275
172,171.90299740846967,349.64300000000003
173,172.90130214657984,379.683
174,173.90505538252182,726.465
175,174.9010897099506,337.483
176,175.90041946413112,113.13
177,176.90119012643117,369.431
178,177.9013120881864,291.826
179,178.90023610697244,134.946
180,179.9037285160157,426.175
181,180.90501637471607,221.13400000000001
182,181.90740968906903,83.56620000000001
183,182.9005413763225,405.67100000000005
184,183.90328063358902,359.179
185,184.90468198410235,362.875
186,185.90347097450285,319.84
187,186.9001709871518,394.346
188,187.90840670641046,423.552
189,188.9000523647701,379.683
190,189.90195667999797,185.84799999999998
191,190.90100651074317,391.247
192,191.90200904675294,385.882
193,192.9008260461269,429.632
194,193.9032729259343,282.17
195,194.90761870707502,244.14199999999997
196,195.904689312767,240.208
197,196.90085865970468,148.178
198,197.90366860138602,193.239
199,198.90183517942205,179.292
200,199.9008540943032,203.372
201,200.90109035477508,269.892
202,201.90032163626165,159.02599999999998
203,202.90722779670614,233.651
204,203.90146846295102,385.40500000000003
205,204.90209582282114,235.558
206,205.90187816449907,240.208
207,206.9039687901968,279.30899999999997
208,207.90018434327794,268.10400000000004
209,208.9024105076969,215.77
210,209.90012693201425,204.206
211,210.90062823268818,192.405
212,211.9002474595036,160.457
213,212.90096823353088,123.144
214,213.90037467566435,116.826
215,214.90261587753776,130.774
216,215.90148889488773,143.41000000000003
217,216.9026561404462,92.6261
218,217.90039583918406,150.681
219,218.90276454461855,101.92399999999999
220,219.90084703982575,224.71
221,220.90191440092167,251.05700000000002
222,221.90538962907158,104.309
223,222.90505016120733,98.7058
224,223.90014247808722,153.781
225,224.90124659892172,105.262
226,225.90154640213586,134.23100000000002
227,226.90363418168272,115.753
228,227.90476798368036,153.06599999999997
229,228.904336627078,95.6063
230,229.90107970769168,77.7249
231,230.9032138901821,58.651199999999996
232,231.90147489038645,109.673
233,232.90377587263356,187.398
234,233.9056529577647,124.93199999999999
235,234.9004772141343,92.7453
236,235.90569113043603,92.6261
237,236.90356836581486,58.4128
238,237.90421932638856,63.300599999999996
239,238.9015221685986,82.25489999999999
240,239.90227889447124,96.56
241,240.9009658820287,195.504
242,241.90027491626097,84.6391
243,242.903917162359,133.038
244,243.90162091280217,34.8093
245,244.9044864960306,209.094
246,245.90563325741095,137.092
247,246.90268234661198,273.468
248,247.9045531610609,272.753
249,248.90196051442763,362.875
250,249.9010684727691,211.478
251,250.90524627664126,247.838
252,251.90134383979603,112.892
253,252.90035050333245,137.56799999999998
254,253.90403141541174,106.81200000000001
255,254.90002703247592,107.408
256,255.9038685086707,181.91400000000002
257,256.9000810908328,89.5266
258,257.9018352708663,64.6119
259,258.90147414573585,26.703000000000003
260,259.90362439106684,45.299800000000005
261,260.9043365030666,10.132800000000001
262,261.9020749028714,16.331799999999998
263,262.90323143597925,42.4387
264,263.90241483808495,34.2133
265,264.9016697644547,19.9081
266,265.902814435598,8.82155
267,266.903098771174,6.079700000000001
268,267.9017178796639,12.9939
269,268.9019923203159,5.96049
270,269.90270702331327,1.54973
271,270.9005267104367,4.8876100000000005
272,271.9009026919666,2.5034099999999997
273,272.90053027967224,1.78815
274,273.9009253970289,6.79496
275,274.90112939313985,4.64919
276,275.90153484995244,3.4570800000000004
277,276.9010367342853,4.2915600000000005
278,277.90186845493736,5.841279999999999
279,278.9023696493241,7.39101
280,279.90265676984563,8.10629
281,280.9021077808575,4.7684
282,281.9026367304323,7.867869999999999
283,282.90327581303427,7.033379999999999
284,283.90048233850393,8.46392
285,284.9045325747866,11.5634
286,285.9022507194604,10.0136
287,286.9008689330076,10.9673
288,287.9028543327295,27.299
289,288.9012835568865,12.636199999999999
290,289.9030314910633,4.05314
291,290.90105949511053,0.715259
292,291.90014639421133,12.636199999999999
293,292.9009951974149,22.2923
294,293.9006490120373,20.1465
295,294.9067940338864,38.504799999999996
296,295.9027840005292,22.649900000000002
297,296.901434340165,6.91417
298,297.9006435861229,5.36445
299,298.9005186029535,0.59605
300,299.90251291860477,10.0136
301,300.90214625987574,19.6696
302,301.9007565433858,6.675750000000001
303,302.9054406484938,18.5968
304,303.90418208943447,17.047
305,304.9042556131317,7.867869999999999
306,305.90127296719584,1.78815
307,306.9010541959142,0.59605
308,307.90153016819386,0.35763
309,308.9001044225297,1.31131
310,309.9004676551267,0.35763
311,310.9019419189426,1.66894
312,311.90091832142207,1.31131
313,312.9023917297018,0.35763
314,313.901604810555,1.43052
315,314.901172442449,2.3842
316,315.900625837181,0.35763
317,316.90796146696084,0.834469
318,317.905696156231,6.79496
319,318.90287087426987,1.0728900000000001
320,319.90252524998505,0.35763
321,320.9056453452795,0.59605
322,321.9014388680516,0.23842
323,322.90181827373453,0.476841
324,323.9045201371482,0.35763
325,324.90143554704264,0.834469
326,325.9027397730388,1.31131
327,326.90153568951064,0.834469
328,327.9021156800736,1.90736
329,328.9062968107173,3.4570800000000004
330,329.9032580072526,1.31131
331,330.90705272593186,0.834469
332,331.9007654537854,1.54973
333,332.9030374318536,1.1921
334,333.90051197004505,0.59605
335,334.9008412550611,0.35763
336,335.90052145914524,0.715259
337,336.9010374449135,5.841279999999999
338,337.90526840274106,1.78815
339,338.9052590287756,2.86104
340,339.9008541562944,2.86104
341,340.9014972182631,1.43052
342,341.90202240034705,2.62262
343,342.90035518372315,1.0728900000000001
344,343.9049640260055,1.31131
345,344.9006382417283,0.23842
346,345.9002334267425,0.23842
347,346.9043913157948,0.0
348,347.9000106880849,4.2915600000000005
349,348.90077330201166,5.12603
350,349.9013223944348,3.4570800000000004
351,350.90403426560806,15.9742
352,351.90395336819347,0.834469
353,352.9026047040825,3.09946
354,353.90066222529276,1.31131
355,354.90070518665016,1.78815
356,355.9010425969318,0.953682
357,356.9033381509362,0.834469
358,357.9003466666909,0.59605
359,358.90164082689444,0.715259
360,359.90150153424474,1.54973
361,360.9021094830532,2.3842
362,361.9046877815854,1.66894
363,362.90416893243673,2.26499
364,363.905854497134,0.953682
365,364.90175522625213,0.834469
366,365.9014140731888,0.23842
367,366.9008510316489,0.11921
368,367.9040268928511,0.23842
369,368.9004646272515,0.834469
370,369.90637195910676,0.59605
371,370.9005010287219,0.59605
372,371.90907030078233,0.834469
373,372.9069629992591,1.90736
374,373.90032275629346,1.0728900000000001
375,374.90392918803263,1.1921
376,375.9018799511541,2.5034099999999997
377,376.9032224029361,1.54973
378,377.9011161046219,1.1921
379,378.9030824310321,0.59605
380,379.9040157617419,1.31131
381,380.9017744741286,2.5034099999999997
382,381.9015099549724,2.74183
383,382.90123521827627,1.43052
384,383.9034661182959,2.26499
385,384.90084265047335,1.78815
386,385.90131466119783,2.3842
387,386.9007912974921,2.5034099999999997
388,387.9028104983736,1.31131
389,388.9034785235999,1.90736
390,389.90194247610634,1.54973
391,390.90113413878134,2.02657
392,391.9006790522253,1.43052
393,392.9027948901057,0.476841
394,393.90370350153535,1.1921
395,394.9066297986137,0.0
396,395.90131923841545,0.0
397,396.9000508997997,1.54973
398,397.9020746438764,0.715259
399,398.9017769107304,2.26499
400,399.9021641733125,0.953682
401,400.90233696612995,0.834469
402,401.90125129031367,1.54973
403,402.90109293622663,1.1921
404,403.9017147071718,0.476841
405,404.90110457030823,0.476841
406,405.90418707890785,0.23842
407,406.9025046105671,1.31131
408,407.9016578714072,0.715259
409,408.902096738806,0.715259
410,409.90174713832675,0.953682
411,410.90590131262434,0.834469
412,411.90110637428006,0.834469
413,412.9008159885707,0.35763
414,413.9023809725477,0.0
415,414.9016304272227,0.23842
416,415.9031008007587,0.23842
417,416.90018886938924,0.23842
418,417.9036388544482,0.23842
419,418.9025058473926,0.953682
420,419.9025473225047,0.715259
421,420.90154233112116,1.0728900000000001
422,421.9009700428869,0.59605
423,422.90191255000536,0.59605
424,423.90104875559337,0.59605
425,424.9017207302386,0.11921
426,425.9006139864796,0.35763
427,426.9019181882031,0.953682
428,427.9009167648328,0.0
429,428.9036241089052,0.23842
430,429.9018254382827,0.834469
431,430.90027471931535,0.23842
432,431.902393784374,0.35763
433,432.9065663915244,0.59605
434,433.90037240463425,4.17235
435,434.9030837115715,1.1921
436,435.9019777276844,0.35763
437,436.90295191842597,0.23842
438,437.9060516713944,0.11921
439,438.90348072265624,0.35763
440,439.90375546217547,0.23842
441,440.9020270507317,0.35763
442,441.90296405999106,0.834469
443,442.90207974339137,0.715259
444,443.9027049673896,0.834469
445,444.90314145595767,0.834469
446,445.9007090290834,0.35763
447,446.90088954064413,0.476841
448,447.90151412462,0.35763
449,448.90172565102694,0.35763
450,449.9007836089295,0.59605
451,450.90100558506674,0.476841
452,451.90189275032026,0.35763
453,452.9016780942329,0.59605
454,453.9029753911891,0.476841
455,454.90421768065426,0.59605
456,455.90079988440266,0.23842
457,456.9006685006607,0.11921
458,457.9027147469169,0.23842
459,458.90318145329366,0.23842
460,459.90112902008696,0.35763
461,460.90080741624115,0.59605
462,461.9032100889017,0.35763
463,462.90157141091186,0.23842
464,463.9008320069406,0.23842
465,464.9015035730263,0.11921
466,465.90127286608913,0.59605
467,466.9005330475047,0.59605
468,467.90458121954,0.23842
469,468.9012211058871,0.35763
470,469.9006387022673,1.1921
471,470.90020602266304,0.23842
472,471.9010521413293,0.35763
473,472.9005502425425,0.59605
474,473.90316855476703,0.476841
475,474.9004725434643,0.476841
476,475.90432016394334,0.35763
477,476.9017620292434,0.23842
478,477.90167522255797,0.476841
479,478.90062988505815,0.11921
480,479.90113325224956,0.476841
481,480.90224295534426,0.23842
482,481.9001531965914,0.35763
483,482.90113031328656,0.59605
484,483.9016509849753,0.35763
485,484.9070919829246,0.715259
486,485.90176337439334,0.59605
487,486.9001961964823,0.35763
488,487.9001191208372,0.715259
489,488.9006183191959,0.35763
490,489.90440300430055,0.715259
491,490.90215265384177,0.834469
492,491.9057833375409,0.715259
493,492.9002058711194,0.59605
494,493.9055659462465,0.35763
495,494.9027003249794,0.59605
496,495.90162514540134,0.59605
497,496.90023587382166,0.715259
498,497.9009060381795,0.35763
499,498.90077690279577,0.35763
500,499.90119433103246,0.23842
501,500.9017290195625,0.476841
502,501.9016473981319,0.23842
503,502.904180602578,0.11921
504,503.9058803425578,0.23842
505,504.9011272358184,1.78815
506,505.9021655745455,0.59605
507,506.90132996518514,0.715259
508,507.9014680516848,0.23842
509,508.90108170817257,0.11921
510,509.90177226095693,0.23842
511,510.9031902194256,0.23842
512,511.9025860102556,1.78815
513,512.9016168617236,0.35763
514,513.9008336005209,0.35763
515,514.9042425824155,0.23842
516,515.9015659196884,1.54973
517,516.9004483176977,0.35763
518,517.9006205224723,0.476841
519,518.9016160754545,0.35763
520,519.9018341586052,0.23842
521,520.901517094986,0.0
522,521.9007017763797,0.35763
523,522.9031113061646,0.23842
524,523.9034998585412,0.476841
525,524.907765636337,0.23842
526,525.9015269099036,0.35763
527,526.9013562645414,0.59605
528,527.9010142164188,0.35763
529,528.9032202481176,0.59605
530,529.9008696342935,0.23842
531,530.900358704268,0.11921
532,531.9017160073563,0.35763
533,532.9038548601966,0.35763
534,533.9048400858883,0.35763
535,534.9030338393641,0.715259
536,535.9028845977155,0.59605
537,536.903306917462,0.476841
538,537.9031912225764,0.23842
539,538.902430846385,0.0
540,539.901445768046,0.35763
541,540.9080555397377,0.35763
542,541.9029680972453,0.35763
543,542.9036239350389,0.59605
544,543.9029077285959,0.59605
545,544.9044849321072,0.35763
546,545.9026347119943,0.35763
547,546.9012010107108,0.35763
548,547.9000318869657,0.35763
549,548.9001202926156,0.23842
550,549.9010515360569,0.59605
551,550.9052235736744,0.35763
552,551.9007335423375,0.23842
553,552.9038863949827,0.23842
554,553.901294652751,0.59605
555,554.9034812620957,0.35763
556,555.9032509133685,0.59605
557,556.9015377220348,0.35763
558,557.9037887565501,0.35763
559,558.9042702612351,0.35763
560,559.90346440961,2.3842
561,560.9001587461098,0.59605
562,561.9010384952999,0.35763
563,562.9001146081719,0.59605
564,563.9011086190585,0.59605
565,564.901403924363,0.715259
566,565.9015290964453,0.35763
567,566.9011511807912,0.35763
568,567.9019694043964,0.35763
569,568.9037944409938,0.476841
570,569.9009605851898,0.35763
571,570.9001808150497,0.476841
572,571.9026127481775,0.476841
573,572.9015785162337,0.35763
574,573.903661692806,0.35763
575,574.9011775966792,0.35763
576,575.9003423197719,0.23842
577,576.9013875862292,0.35763
578,577.9000186416088,0.35763
579,578.9015213375096,0.35763
580,579.9016618644819,0.23842
581,580.9003250249079,0.35763
582,581.9011749926722,0.35763
583,582.9008131243754,0.23842
584,583.9009291536058,0.23842
585,584.9023713271017,0.476841
586,585.902899644745,0.35763
587,586.9017286520393,0.35763
588,587.9025241379568,0.35763
589,588.9033908463898,0.476841
590,589.900385120156,0.35763
591,590.9021406060783,0.23842
592,591.900588757504,0.35763
593,592.9042484605452,0.35763
594,593.9038266840507,0.59605
595,594.9016998955049,0.35763
596,595.9031718286569,0.35763
597,596.9002650783805,0.476841
598,597.9005807314534,0.35763
599,598.9002914942394,0.23842
600,599.9012869383441,0.35763
